Vots(V)	Current(A)	MeasVolt(V)
0	0.000000000016444	0.0000479773
-0.01	-0.000000000240493	-0.00999552
-0.02	-0.000000000526509	-0.0200031
-0.03	-0.000000000852409	-0.0300033
-0.04	-0.00000000121956	-0.0400041
-0.05	-0.00000000163679	-0.0500072
-0.06	-0.00000000211169	-0.0600032
-0.07	-0.00000000264983	-0.0700067
-0.08	-0.00000000326273	-0.0800065
-0.09	-0.00000000394839	-0.090003
-0.1	-0.00000000472553	-0.100008
-0.11	-0.00000000560041	-0.110008
-0.12	-0.00000000657231	-0.120006
-0.13	-0.00000000766246	-0.130009
-0.14	-0.00000000887336	-0.140004
-0.15	-0.0000000102174	-0.150007
-0.16	-0.0000000117003	-0.160009
-0.17	-0.000000013333	-0.170004
-0.18	-0.0000000151267	-0.180009
-0.19	-0.0000000170897	-0.190007
-0.2	-0.0000000192346	-0.200005
-0.21	-0.0000000215767	-0.21001
-0.22	-0.0000000241301	-0.22004
-0.23	-0.0000000268944	-0.230042
-0.24	-0.0000000298966	-0.24008
-0.25	-0.0000000331428	-0.250086
-0.26	-0.0000000366388	-0.260087
-0.27	-0.0000000404125	-0.270081
-0.28	-0.0000000444711	-0.280077
-0.29	-0.000000048832	-0.29007
-0.3	-0.0000000535162	-0.300063
-0.31	-0.0000000585378	-0.310054
-0.32	-0.0000000639527	-0.320079
-0.33	-0.0000000697206	-0.330068
-0.34	-0.0000000758765	-0.340062
-0.35	-0.0000000824504	-0.350053
-0.36	-0.0000000894536	-0.360048
-0.37	-0.0000000969397	-0.370038
-0.38	-0.000000104901	-0.380033
-0.39	-0.000000113362	-0.390024
-0.4	-0.000000122378	-0.40005
-0.41	-0.000000131938	-0.410055
-0.42	-0.000000142096	-0.420057
-0.43	-0.00000015283	-0.430058
-0.44	-0.000000164194	-0.440061
-0.45	-0.000000176243	-0.450063
-0.46	-0.000000188997	-0.460069
-0.47	-0.000000202467	-0.470065
-0.48	-0.000000216745	-0.480099
-0.49	-0.000000231741	-0.490104
-0.5	-0.000000247569	-0.500103
-0.51	-0.000000264194	-0.510108
-0.52	-0.000000281725	-0.52011
-0.53	-0.000000300098	-0.530112
-0.54	-0.00000031942	-0.540105
-0.55	-0.000000339741	-0.550098
-0.56	-0.000000361087	-0.560123
-0.57	-0.00000038344	-0.57011
-0.58	-0.000000406851	-0.580102
-0.59	-0.000000431405	-0.590096
-0.6	-0.000000457066	-0.600079
-0.61	-0.000000483844	-0.61007
-0.62	-0.000000511894	-0.620064
-0.63	-0.000000541204	-0.630054
-0.64	-0.000000571905	-0.640077
-0.65	-0.000000603788	-0.650067
-0.66	-0.000000637021	-0.660061
-0.67	-0.000000671703	-0.670054
-0.68	-0.000000707788	-0.680057
-0.69	-0.000000745343	-0.69006
-0.7	-0.000000784507	-0.700059
-0.71	-0.00000082517	-0.710061
-0.72	-0.000000867541	-0.720098
-0.73	-0.000000911388	-0.7301
-0.74	-0.000000956925	-0.740094
-0.75	-0.00000100468	-0.750084
-0.76	-0.00000105459	-0.760087
-0.77	-0.00000110624	-0.770086
-0.78	-0.00000115982	-0.780087
-0.79	-0.00000121515	-0.790087
-0.8	-0.00000127262	-0.800121
-0.81	-0.00000133175	-0.810114
-0.82	-0.00000139288	-0.820104
-0.83	-0.00000145616	-0.830096
-0.84	-0.00000152151	-0.840085
-0.85	-0.00000158871	-0.850077
-0.86	-0.00000165824	-0.860069
-0.87	-0.00000172954	-0.870051
-0.88	-0.00000180358	-0.880078
-0.89	-0.00000187946	-0.89007
-0.9	-0.00000195775	-0.900059
-0.91	-0.00000203833	-0.91005
-0.92	-0.00000212118	-0.92004
-0.93	-0.00000220614	-0.930033
-0.94	-0.00000229405	-0.940028
-0.95	-0.00000238412	-0.950029
-0.96	-0.00000247671	-0.960066
-0.97	-0.00000257152	-0.970068
-0.98	-0.00000266893	-0.980071
-0.99	-0.00000276861	-0.990075
-1	-0.00000287124	-1.00007
-1	-0.00000286209	-1.00007
-0.99	-0.00000274434	-0.990073
-0.98	-0.00000263184	-0.980072
-0.97	-0.00000252442	-0.970066
-0.96	-0.00000242098	-0.960066
-0.95	-0.00000232132	-0.950028
-0.94	-0.00000222557	-0.940027
-0.93	-0.00000213347	-0.930033
-0.92	-0.00000204424	-0.920039
-0.91	-0.00000195869	-0.910048
-0.9	-0.00000187574	-0.900057
-0.89	-0.00000179564	-0.890068
-0.88	-0.00000171842	-0.880077
-0.87	-0.00000164363	-0.870051
-0.86	-0.00000157177	-0.860068
-0.85	-0.00000150264	-0.850076
-0.84	-0.00000143565	-0.840084
-0.83	-0.0000013713	-0.830096
-0.82	-0.0000013092	-0.820103
-0.81	-0.00000124925	-0.810113
-0.8	-0.00000119159	-0.80012
-0.79	-0.00000113586	-0.790087
-0.78	-0.00000108273	-0.780085
-0.77	-0.00000103113	-0.770086
-0.76	-0.000000982772	-0.760098
-0.75	-0.000000935431	-0.750095
-0.74	-0.000000889738	-0.740092
-0.73	-0.000000845976	-0.730098
-0.72	-0.000000803718	-0.720097
-0.71	-0.000000763177	-0.710059
-0.7	-0.000000724272	-0.700057
-0.69	-0.000000687055	-0.690059
-0.68	-0.000000651305	-0.680055
-0.67	-0.000000617043	-0.670055
-0.66	-0.000000584232	-0.660059
-0.65	-0.000000552804	-0.650068
-0.64	-0.000000522765	-0.640078
-0.63	-0.000000493904	-0.630054
-0.62	-0.000000466493	-0.620063
-0.61	-0.000000440377	-0.610069
-0.6	-0.000000415415	-0.600078
-0.59	-0.000000391605	-0.590094
-0.58	-0.000000368921	-0.5801
-0.57	-0.000000347237	-0.57011
-0.56	-0.000000326647	-0.560121
-0.55	-0.000000306958	-0.550096
-0.54	-0.000000288334	-0.540104
-0.53	-0.00000027063	-0.53011
-0.52	-0.000000253778	-0.520109
-0.51	-0.000000237799	-0.510108
-0.5	-0.0000002226	-0.500102
-0.49	-0.000000208184	-0.490101
-0.48	-0.000000194545	-0.480097
-0.47	-0.000000181611	-0.470064
-0.46	-0.000000169414	-0.460069
-0.45	-0.000000157859	-0.450063
-0.44	-0.000000146953	-0.440062
-0.43	-0.000000136672	-0.430059
-0.42	-0.000000126968	-0.420058
-0.41	-0.000000117804	-0.410054
-0.4	-0.000000109186	-0.40005
-0.39	-0.000000101074	-0.390024
-0.38	-0.0000000934631	-0.380033
-0.37	-0.0000000863178	-0.370038
-0.36	-0.0000000796172	-0.360048
-0.35	-0.0000000733249	-0.350053
-0.34	-0.0000000674381	-0.340062
-0.33	-0.0000000619241	-0.330066
-0.32	-0.0000000567788	-0.320081
-0.31	-0.000000051958	-0.310055
-0.3	-0.0000000474678	-0.300062
-0.29	-0.0000000432861	-0.290071
-0.28	-0.0000000394153	-0.280076
-0.27	-0.0000000357927	-0.270081
-0.26	-0.0000000324431	-0.260087
-0.25	-0.0000000293228	-0.250084
-0.24	-0.0000000264517	-0.240078
-0.23	-0.0000000237783	-0.230042
-0.22	-0.0000000213233	-0.22004
-0.21	-0.0000000190694	-0.21001
-0.2	-0.0000000169913	-0.200004
-0.19	-0.000000015092	-0.190007
-0.18	-0.0000000133564	-0.180008
-0.17	-0.0000000117655	-0.170003
-0.16	-0.0000000103207	-0.160008
-0.15	-0.00000000900988	-0.150007
-0.14	-0.00000000782511	-0.140003
-0.13	-0.00000000675641	-0.130007
-0.12	-0.00000000579271	-0.120003
-0.11	-0.00000000493317	-0.110007
-0.1	-0.00000000416495	-0.100008
-0.09	-0.00000000347815	-0.0900019
-0.08	-0.00000000287018	-0.0800049
-0.07	-0.00000000233197	-0.0700053
-0.06	-0.00000000185695	-0.0600035
-0.05	-0.00000000144268	-0.0500059
-0.04	-0.00000000107242	-0.0400019
-0.03	-0.000000000749021	-0.0300021
-0.02	-0.000000000462739	-0.0200038
-0.01	-0.000000000209593	-0.00999537
0	0.0000000000157236	0.00000742077
0.01	0.000000000219844	0.0100428
0.02	0.000000000402832	0.0200494
0.03	0.000000000574789	0.0300533
0.04	0.000000000730065	0.040051
0.05	0.000000000883143	0.0500562
0.06	0.00000000103103	0.0600553
0.07	0.00000000116799	0.0700547
0.08	0.00000000130795	0.0800589
0.09	0.00000000144553	0.0900543
0.1	0.00000000158488	0.100059
0.11	0.00000000172549	0.110057
0.12	0.00000000186768	0.120054
0.13	0.00000000201102	0.130063
0.14	0.00000000217289	0.140057
0.15	0.00000000231016	0.150056
0.16	0.00000000246237	0.160063
0.17	0.00000000261965	0.170055
0.18	0.00000000278441	0.180059
0.19	0.00000000294408	0.190059
0.2	0.00000000311399	0.200056
0.21	0.00000000328814	0.210063
0.22	0.00000000346484	0.220097
0.23	0.00000000365018	0.230098
0.24	0.00000000383593	0.240102
0.25	0.0000000040312	0.250106
0.26	0.00000000422879	0.260108
0.27	0.00000000443896	0.270102
0.28	0.00000000465034	0.28013
0.29	0.0000000048704	0.290122
0.3	0.00000000511237	0.30011
0.31	0.00000000534616	0.310107
0.32	0.0000000056055	0.320099
0.33	0.00000000586571	0.330083
0.34	0.00000000614059	0.340078
0.35	0.0000000064279	0.350069
0.36	0.00000000673531	0.360097
0.37	0.00000000703002	0.370087
0.38	0.00000000737594	0.38008
0.39	0.00000000772944	0.390072
0.4	0.0000000080989	0.400062
0.41	0.00000000848288	0.410066
0.42	0.00000000888916	0.420069
0.43	0.00000000932504	0.43007
0.44	0.00000000976017	0.440104
0.45	0.0000000102525	0.450107
0.46	0.0000000107734	0.460112
0.47	0.0000000113148	0.470105
0.48	0.000000011899	0.480107
0.49	0.0000000125078	0.490111
0.5	0.0000000131663	0.500109
0.51	0.0000000138457	0.510113
0.52	0.0000000145754	0.520148
0.53	0.0000000153609	0.530149
0.54	0.0000000161666	0.540142
0.55	0.0000000170395	0.550134
0.56	0.0000000179638	0.560123
0.57	0.0000000189575	0.570114
0.58	0.0000000199953	0.580104
0.59	0.0000000211144	0.590098
0.6	0.000000022273	0.600113
0.61	0.0000000235146	0.610105
0.62	0.0000000248207	0.620097
0.63	0.000000026211	0.630087
0.64	0.000000027723	0.640077
0.65	0.000000029267	0.650067
0.66	0.0000000309567	0.660057
0.67	0.0000000327882	0.670052
0.68	0.0000000346079	0.680085
0.69	0.0000000365702	0.690085
0.7	0.0000000387617	0.700086
0.71	0.0000000410172	0.710088
0.72	0.0000000433779	0.720091
0.73	0.0000000459085	0.730093
0.74	0.0000000485904	0.740085
0.75	0.0000000513808	0.75009
0.76	0.0000000543657	0.760122
0.77	0.0000000575987	0.770122
0.78	0.0000000609369	0.780122
0.79	0.000000064584	0.790123
0.8	0.0000000683642	0.800125
0.81	0.0000000723781	0.810115
0.82	0.0000000767211	0.820106
0.83	0.0000000811483	0.830099
0.84	0.0000000858743	0.84012
0.85	0.0000000910557	0.850112
0.86	0.0000000965346	0.860103
0.87	0.000000102176	0.870086
0.88	0.000000108218	0.880078
0.89	0.00000011471	0.89007
0.9	0.00000012145	0.900057
0.91	0.000000128899	0.910049
0.92	0.00000013647	0.920072
0.93	0.000000144645	0.930065
0.94	0.000000153381	0.94006
0.95	0.000000162515	0.950061
0.96	0.00000017228	0.960065
0.97	0.00000018253	0.970065
0.98	0.000000193387	0.980071
0.99	0.000000204908	0.990073
1	0.000000217158	1.00011
1	0.000000217957	1.00011
0.99	0.000000206977	0.990074
0.98	0.000000195891	0.98007
0.97	0.00000018561	0.970067
0.96	0.000000175697	0.960065
0.95	0.000000166945	0.950061
0.94	0.000000158072	0.940059
0.93	0.000000149466	0.930065
0.92	0.000000141557	0.920073
0.91	0.00000013425	0.910048
0.9	0.000000127033	0.900057
0.89	0.000000120322	0.89007
0.88	0.000000113855	0.880078
0.87	0.000000107898	0.870086
0.86	0.000000102062	0.860101
0.85	0.0000000967279	0.850111
0.84	0.0000000915726	0.84012
0.83	0.0000000867766	0.830098
0.82	0.0000000821869	0.820105
0.81	0.0000000778581	0.810116
0.8	0.0000000737907	0.800123
0.79	0.0000000699999	0.790122
0.78	0.0000000662154	0.780121
0.77	0.0000000627055	0.770121
0.76	0.0000000595156	0.760121
0.75	0.0000000564404	0.750085
0.74	0.0000000534372	0.740084
0.73	0.0000000508102	0.73009
0.72	0.0000000481245	0.72009
0.71	0.0000000456321	0.710088
0.7	0.0000000432525	0.700085
0.69	0.0000000410161	0.690085
0.68	0.0000000388961	0.680087
0.67	0.0000000369147	0.670051
0.66	0.0000000349139	0.660057
0.65	0.0000000331836	0.650067
0.64	0.0000000314826	0.640078
0.63	0.000000029835	0.630086
0.62	0.0000000282506	0.620097
0.61	0.0000000268964	0.610104
0.6	0.000000025515	0.600113
0.59	0.0000000242197	0.590098
0.58	0.0000000229287	0.580105
0.57	0.000000021817	0.570113
0.56	0.0000000207211	0.560124
0.55	0.0000000197029	0.550136
0.54	0.0000000187296	0.540144
0.53	0.0000000177929	0.530151
0.52	0.0000000169169	0.520148
0.51	0.0000000161387	0.510114
0.5	0.0000000153627	0.50011
0.49	0.0000000146425	0.490112
0.48	0.0000000139516	0.480107
0.47	0.0000000132899	0.470108
0.46	0.0000000126787	0.460112
0.45	0.000000012096	0.450108
0.44	0.0000000115436	0.440106
0.43	0.0000000110047	0.430071
0.42	0.0000000105091	0.420071
0.41	0.0000000100643	0.410069
0.4	0.00000000961801	0.400064
0.39	0.00000000919665	0.390073
0.38	0.00000000879951	0.380081
0.37	0.00000000841177	0.370088
0.36	0.00000000804951	0.360098
0.35	0.00000000769684	0.350069
0.34	0.00000000736495	0.340079
0.33	0.00000000704704	0.330085
0.32	0.00000000673747	0.3201
0.31	0.00000000643367	0.310109
0.3	0.00000000616432	0.300112
0.29	0.00000000588993	0.290125
0.28	0.00000000563185	0.280132
0.27	0.00000000537577	0.270104
0.26	0.00000000512481	0.26011
0.25	0.00000000488124	0.250108
0.24	0.00000000466088	0.240104
0.23	0.00000000443812	0.2301
0.22	0.00000000422124	0.220099
0.21	0.00000000400743	0.210066
0.2	0.00000000379435	0.200059
0.19	0.00000000359028	0.19006
0.18	0.00000000339698	0.18006
0.17	0.00000000320444	0.170056
0.16	0.00000000301376	0.160063
0.15	0.00000000282702	0.150056
0.14	0.00000000264516	0.140056
0.13	0.00000000246673	0.130062
0.12	0.00000000228871	0.120054
0.11	0.00000000211478	0.110057
0.1	0.00000000194691	0.100058
0.09	0.00000000177227	0.0900537
0.08	0.00000000160456	0.0800571
0.07	0.00000000143438	0.0700546
0.06	0.00000000126007	0.0600556
0.05	0.00000000108262	0.0500571
0.04	0.000000000896108	0.0400519
0.03	0.00000000069879	0.0300537
0.02	0.00000000049245	0.0200507
0.01	0.000000000263705	0.0100441
0	0.0000000000150412	0.0000468359
