Vots(V)	Current(A)	MeasVolt(V)
0	0.0000000000167093	0.0000479012
-0.01	-0.000000000256606	-0.00999659
-0.02	-0.000000000561882	-0.0200033
-0.03	-0.000000000904236	-0.0300035
-0.04	-0.00000000129205	-0.0400031
-0.05	-0.00000000173286	-0.050007
-0.06	-0.00000000223339	-0.0600035
-0.07	-0.00000000280235	-0.0700053
-0.08	-0.00000000344797	-0.0800064
-0.09	-0.00000000416972	-0.0900023
-0.1	-0.00000000498448	-0.100008
-0.11	-0.00000000590273	-0.110006
-0.12	-0.00000000692824	-0.120005
-0.13	-0.00000000807409	-0.130009
-0.14	-0.00000000934428	-0.140006
-0.15	-0.0000000107498	-0.150007
-0.16	-0.0000000123006	-0.16001
-0.17	-0.0000000140084	-0.170003
-0.18	-0.0000000158865	-0.180008
-0.19	-0.0000000179409	-0.190007
-0.2	-0.0000000201823	-0.200003
-0.21	-0.0000000226206	-0.210008
-0.22	-0.0000000252782	-0.22004
-0.23	-0.000000028159	-0.230042
-0.24	-0.0000000312905	-0.240078
-0.25	-0.0000000346638	-0.250084
-0.26	-0.0000000383024	-0.260086
-0.27	-0.0000000422252	-0.270081
-0.28	-0.0000000464367	-0.280077
-0.29	-0.0000000509778	-0.29007
-0.3	-0.0000000558429	-0.300062
-0.31	-0.0000000610575	-0.310055
-0.32	-0.0000000666618	-0.320079
-0.33	-0.0000000726286	-0.330067
-0.34	-0.0000000790123	-0.340061
-0.35	-0.0000000858098	-0.350052
-0.36	-0.0000000930773	-0.360049
-0.37	-0.000000100815	-0.370038
-0.38	-0.000000109031	-0.380033
-0.39	-0.000000117787	-0.390025
-0.4	-0.000000127109	-0.40005
-0.41	-0.000000136988	-0.410054
-0.42	-0.000000147463	-0.420057
-0.43	-0.000000158538	-0.430058
-0.44	-0.000000170294	-0.44006
-0.45	-0.000000182696	-0.450062
-0.46	-0.000000195838	-0.460069
-0.47	-0.000000209718	-0.470063
-0.48	-0.000000224395	-0.480098
-0.49	-0.000000239818	-0.490103
-0.5	-0.000000256065	-0.500102
-0.51	-0.000000273162	-0.510107
-0.52	-0.000000291159	-0.520108
-0.53	-0.000000310093	-0.530111
-0.54	-0.000000329878	-0.540105
-0.55	-0.000000350697	-0.550098
-0.56	-0.000000372621	-0.560123
-0.57	-0.000000395521	-0.570111
-0.58	-0.000000419506	-0.580101
-0.59	-0.000000444605	-0.590096
-0.6	-0.000000470889	-0.600079
-0.61	-0.000000498387	-0.610069
-0.62	-0.000000527058	-0.620064
-0.63	-0.000000557025	-0.630056
-0.64	-0.000000588421	-0.640079
-0.65	-0.000000621042	-0.650069
-0.66	-0.00000065502	-0.66006
-0.67	-0.000000690403	-0.670056
-0.68	-0.000000727307	-0.680057
-0.69	-0.000000765807	-0.690062
-0.7	-0.000000805705	-0.700059
-0.71	-0.000000847166	-0.710061
-0.72	-0.000000890441	-0.720098
-0.73	-0.000000935245	-0.730101
-0.74	-0.000000981722	-0.740094
-0.75	-0.0000010305	-0.750085
-0.76	-0.00000108146	-0.760087
-0.77	-0.00000113426	-0.770087
-0.78	-0.0000011889	-0.780085
-0.79	-0.00000124542	-0.790087
-0.8	-0.00000130424	-0.800121
-0.81	-0.00000136446	-0.810114
-0.82	-0.00000142689	-0.820104
-0.83	-0.0000014913	-0.830096
-0.84	-0.00000155776	-0.840084
-0.85	-0.00000162651	-0.850076
-0.86	-0.00000169739	-0.860069
-0.87	-0.00000177026	-0.870052
-0.88	-0.00000184595	-0.880078
-0.89	-0.00000192312	-0.890069
-0.9	-0.00000200319	-0.900058
-0.91	-0.00000208515	-0.910049
-0.92	-0.00000216973	-0.92004
-0.93	-0.00000225622	-0.930033
-0.94	-0.00000234565	-0.940028
-0.95	-0.00000243731	-0.950029
-0.96	-0.00000253154	-0.960068
-0.97	-0.00000262815	-0.970067
-0.98	-0.00000272725	-0.98007
-0.99	-0.00000282891	-0.990074
-1	-0.00000293325	-1.00007
-1.01	-0.00000303979	-1.01007
-1.02	-0.00000314921	-1.02007
-1.03	-0.0000032609	-1.03008
-1.04	-0.0000033755	-1.04011
-1.05	-0.00000349315	-1.05011
-1.06	-0.00000361276	-1.06012
-1.07	-0.00000373488	-1.07012
-1.08	-0.00000385971	-1.08011
-1.09	-0.00000398626	-1.0901
-1.1	-0.00000411607	-1.10009
-1.1	-0.00000410185	-1.10009
-1.09	-0.000003947	-1.0901
-1.08	-0.00000379955	-1.08011
-1.07	-0.00000365793	-1.07012
-1.06	-0.00000352147	-1.06012
-1.05	-0.0000033899	-1.05011
-1.04	-0.0000032622	-1.04011
-1.03	-0.00000313867	-1.03008
-1.02	-0.00000301974	-1.02007
-1.01	-0.0000029041	-1.01007
-1	-0.00000279264	-1.00007
-0.99	-0.0000026846	-0.990073
-0.98	-0.00000257975	-0.98007
-0.97	-0.00000247803	-0.970065
-0.96	-0.00000237971	-0.960065
-0.95	-0.0000022843	-0.950027
-0.94	-0.00000219237	-0.940027
-0.93	-0.00000210326	-0.930032
-0.92	-0.00000201706	-0.920038
-0.91	-0.00000193383	-0.910048
-0.9	-0.00000185304	-0.900057
-0.89	-0.00000177519	-0.890068
-0.88	-0.00000169973	-0.880078
-0.87	-0.00000162674	-0.870051
-0.86	-0.00000155644	-0.860069
-0.85	-0.00000148847	-0.850076
-0.84	-0.00000142291	-0.840085
-0.83	-0.00000135967	-0.830096
-0.82	-0.00000129863	-0.820103
-0.81	-0.00000123978	-0.810112
-0.8	-0.00000118305	-0.800121
-0.79	-0.00000112808	-0.790087
-0.78	-0.00000107543	-0.780087
-0.77	-0.00000102473	-0.770086
-0.76	-0.000000977277	-0.760098
-0.75	-0.000000930697	-0.750095
-0.74	-0.000000885822	-0.740092
-0.73	-0.000000842611	-0.730096
-0.72	-0.000000800981	-0.720096
-0.71	-0.000000760798	-0.710059
-0.7	-0.000000722294	-0.700057
-0.69	-0.000000685479	-0.690059
-0.68	-0.000000650056	-0.680055
-0.67	-0.000000616171	-0.670053
-0.66	-0.000000583688	-0.660058
-0.65	-0.000000552567	-0.650065
-0.64	-0.000000522804	-0.640077
-0.63	-0.000000494178	-0.630053
-0.62	-0.000000467008	-0.620062
-0.61	-0.000000440986	-0.610068
-0.6	-0.000000416141	-0.600078
-0.59	-0.00000039244	-0.590093
-0.58	-0.000000369798	-0.5801
-0.57	-0.000000348232	-0.570109
-0.56	-0.000000327678	-0.560122
-0.55	-0.000000308026	-0.550095
-0.54	-0.000000289389	-0.540105
-0.53	-0.00000027168	-0.530111
-0.52	-0.000000254815	-0.520108
-0.51	-0.000000238802	-0.510107
-0.5	-0.000000223603	-0.500102
-0.49	-0.000000209199	-0.490103
-0.48	-0.000000195545	-0.480098
-0.47	-0.000000182576	-0.470064
-0.46	-0.00000017036	-0.460069
-0.45	-0.000000158815	-0.450064
-0.44	-0.000000147885	-0.440061
-0.43	-0.000000137589	-0.430059
-0.42	-0.000000127848	-0.420057
-0.41	-0.000000118671	-0.410054
-0.4	-0.000000110024	-0.400049
-0.39	-0.000000101872	-0.390025
-0.38	-0.0000000942317	-0.380032
-0.37	-0.0000000870582	-0.370038
-0.36	-0.0000000803213	-0.360048
-0.35	-0.0000000740035	-0.350053
-0.34	-0.0000000680826	-0.340061
-0.33	-0.0000000625449	-0.330066
-0.32	-0.0000000573672	-0.320079
-0.31	-0.000000052503	-0.310053
-0.3	-0.0000000479917	-0.300062
-0.29	-0.0000000437854	-0.290072
-0.28	-0.0000000398657	-0.280077
-0.27	-0.0000000362272	-0.270082
-0.26	-0.0000000328443	-0.260087
-0.25	-0.000000029708	-0.250084
-0.24	-0.0000000268041	-0.240079
-0.23	-0.000000024109	-0.230043
-0.22	-0.0000000216316	-0.22004
-0.21	-0.0000000193506	-0.21001
-0.2	-0.0000000172513	-0.200005
-0.19	-0.0000000153218	-0.190007
-0.18	-0.0000000135571	-0.180009
-0.17	-0.0000000119542	-0.170003
-0.16	-0.0000000104944	-0.160009
-0.15	-0.00000000916499	-0.150008
-0.14	-0.00000000796728	-0.140005
-0.13	-0.00000000688282	-0.13001
-0.12	-0.00000000590466	-0.120006
-0.11	-0.00000000502853	-0.110008
-0.1	-0.00000000424798	-0.100009
-0.09	-0.00000000354856	-0.0900026
-0.08	-0.00000000293092	-0.080007
-0.07	-0.00000000238519	-0.0700075
-0.06	-0.00000000190032	-0.0600051
-0.05	-0.00000000147422	-0.0500078
-0.04	-0.00000000109278	-0.0400042
-0.03	-0.000000000766385	-0.0300033
-0.02	-0.000000000475175	-0.0200045
-0.01	-0.000000000216494	-0.00999598
0	0.0000000000171263	0.00000696426
0.01	0.000000000229132	0.0100418
0.02	0.000000000415494	0.0200483
0.03	0.000000000589649	0.0300537
0.04	0.000000000753455	0.0400491
0.05	0.000000000906267	0.050056
0.06	0.00000000105711	0.0600553
0.07	0.0000000012009	0.0700548
0.08	0.00000000134552	0.0800572
0.09	0.00000000148802	0.0900532
0.1	0.00000000163348	0.100058
0.11	0.00000000177898	0.110057
0.12	0.00000000192667	0.120054
0.13	0.00000000207444	0.130062
0.14	0.00000000222987	0.140057
0.15	0.00000000238537	0.150056
0.16	0.00000000254467	0.160063
0.17	0.00000000270499	0.170056
0.18	0.00000000286898	0.180059
0.19	0.00000000304185	0.190058
0.2	0.00000000321631	0.200058
0.21	0.00000000339626	0.210064
0.22	0.00000000358346	0.220097
0.23	0.00000000377509	0.230098
0.24	0.00000000396998	0.240102
0.25	0.00000000417212	0.250107
0.26	0.0000000043805	0.260108
0.27	0.00000000459616	0.270103
0.28	0.0000000048193	0.280131
0.29	0.00000000505096	0.290125
0.3	0.00000000529127	0.300112
0.31	0.00000000554204	0.310108
0.32	0.00000000580134	0.3201
0.33	0.00000000607516	0.330086
0.34	0.00000000636376	0.34008
0.35	0.00000000666768	0.350071
0.36	0.00000000696993	0.360099
0.37	0.00000000730452	0.370088
0.38	0.00000000764756	0.380081
0.39	0.00000000801145	0.390073
0.4	0.00000000839096	0.400065
0.41	0.0000000087934	0.410067
0.42	0.00000000921905	0.420071
0.43	0.00000000966179	0.430071
0.44	0.0000000101189	0.440106
0.45	0.0000000106259	0.450109
0.46	0.0000000111632	0.460113
0.47	0.0000000117259	0.470108
0.48	0.0000000123175	0.480108
0.49	0.000000012956	0.490113
0.5	0.0000000136345	0.500112
0.51	0.0000000143548	0.510116
0.52	0.0000000151183	0.52015
0.53	0.0000000159225	0.53015
0.54	0.0000000167435	0.540145
0.55	0.0000000176401	0.550135
0.56	0.0000000185877	0.560125
0.57	0.0000000196312	0.570116
0.58	0.0000000206902	0.580106
0.59	0.0000000218079	0.590099
0.6	0.0000000229863	0.600113
0.61	0.0000000243146	0.610105
0.62	0.0000000256542	0.620098
0.63	0.0000000270524	0.630088
0.64	0.0000000285354	0.640078
0.65	0.0000000301567	0.650068
0.66	0.0000000318991	0.660058
0.67	0.0000000337151	0.670053
0.68	0.0000000355409	0.680086
0.69	0.0000000375735	0.690087
0.7	0.0000000397427	0.700087
0.71	0.0000000420314	0.710089
0.72	0.0000000444328	0.720093
0.73	0.0000000470001	0.730091
0.74	0.0000000495944	0.740085
0.75	0.000000052599	0.750088
0.76	0.0000000556372	0.760123
0.77	0.0000000587139	0.770122
0.78	0.0000000620234	0.780123
0.79	0.0000000655941	0.790123
0.8	0.0000000694144	0.800125
0.81	0.0000000735168	0.810117
0.82	0.0000000777222	0.820107
0.83	0.0000000821449	0.830097
0.84	0.0000000868359	0.84012
0.85	0.0000000919836	0.850113
0.86	0.0000000973474	0.860102
0.87	0.000000103129	0.870086
0.88	0.000000109004	0.880081
0.89	0.000000115374	0.890071
0.9	0.000000122258	0.900058
0.91	0.000000129372	0.910051
0.92	0.000000136892	0.920075
0.93	0.000000144867	0.930066
0.94	0.000000153761	0.940062
0.95	0.000000162829	0.950061
0.96	0.000000172336	0.960067
0.97	0.00000018262	0.970067
0.98	0.000000193315	0.980071
0.99	0.000000204901	0.990074
1	0.000000217037	1.00011
1.01	0.000000229817	1.01011
1.02	0.000000243127	1.02011
1.03	0.000000257725	1.03011
1.04	0.000000272457	1.04011
1.05	0.000000288579	1.05011
1.06	0.000000305471	1.06012
1.07	0.000000323506	1.07012
1.08	0.00000034221	1.08014
1.09	0.000000361553	1.09014
1.1	0.000000382156	1.10013
1.1	0.000000383248	1.10013
1.09	0.000000365223	1.09014
1.08	0.000000347468	1.08014
1.07	0.000000330763	1.07012
1.06	0.000000314199	1.06012
1.05	0.000000298335	1.05011
1.04	0.000000282599	1.04011
1.03	0.00000026865	1.03011
1.02	0.000000254249	1.02011
1.01	0.000000240993	1.01011
1	0.000000228561	1.00011
0.99	0.000000216954	0.990075
0.98	0.000000205501	0.980073
0.97	0.000000194327	0.970069
0.96	0.000000184403	0.960069
0.95	0.000000174533	0.950064
0.94	0.000000165393	0.940062
0.93	0.000000156456	0.930068
0.92	0.000000148773	0.920073
0.91	0.000000140794	0.910052
0.9	0.000000133459	0.900059
0.89	0.00000012638	0.890072
0.88	0.000000119876	0.880084
0.87	0.000000113583	0.870088
0.86	0.000000107528	0.860105
0.85	0.00000010202	0.850115
0.84	0.0000000967849	0.840122
0.83	0.0000000918308	0.8301
0.82	0.0000000873629	0.820108
0.81	0.000000082586	0.810118
0.8	0.0000000783755	0.800126
0.79	0.0000000742332	0.790125
0.78	0.0000000704405	0.780124
0.77	0.0000000667903	0.770124
0.76	0.0000000634328	0.760124
0.75	0.0000000601681	0.75009
0.74	0.0000000569977	0.740088
0.73	0.0000000543288	0.730092
0.72	0.0000000514315	0.720093
0.71	0.0000000489239	0.710088
0.7	0.0000000462802	0.700088
0.69	0.0000000439323	0.690087
0.68	0.0000000416657	0.680088
0.67	0.000000039568	0.670055
0.66	0.000000037634	0.66006
0.65	0.0000000358051	0.650069
0.64	0.0000000338969	0.640079
0.63	0.0000000321368	0.63009
0.62	0.0000000305973	0.620099
0.61	0.0000000289765	0.610106
0.6	0.0000000275301	0.600114
0.59	0.0000000262159	0.590099
0.58	0.0000000248948	0.580107
0.57	0.0000000236956	0.570117
0.56	0.0000000225579	0.560127
0.55	0.0000000214229	0.550136
0.54	0.0000000203901	0.540144
0.53	0.0000000193968	0.530151
0.52	0.0000000185519	0.520149
0.51	0.0000000176431	0.510117
0.5	0.0000000167752	0.500112
0.49	0.0000000159552	0.490114
0.48	0.0000000152484	0.480109
0.47	0.0000000145214	0.470108
0.46	0.0000000138604	0.460114
0.45	0.0000000132494	0.45011
0.44	0.0000000126618	0.440108
0.43	0.0000000120564	0.430072
0.42	0.0000000115281	0.420072
0.41	0.000000011026	0.410071
0.4	0.0000000105421	0.400066
0.39	0.0000000100742	0.390074
0.38	0.00000000963313	0.380082
0.37	0.00000000923664	0.37009
0.36	0.00000000881869	0.3601
0.35	0.00000000844031	0.350072
0.34	0.00000000807798	0.340081
0.33	0.00000000772872	0.330086
0.32	0.00000000739804	0.320101
0.31	0.00000000706838	0.310108
0.3	0.00000000676647	0.300114
0.29	0.00000000646558	0.290125
0.28	0.00000000618642	0.280133
0.27	0.00000000590294	0.270106
0.26	0.00000000563708	0.26011
0.25	0.00000000536459	0.250108
0.24	0.00000000511931	0.240103
0.23	0.00000000486797	0.2301
0.22	0.00000000462778	0.220097
0.21	0.0000000043943	0.210066
0.2	0.00000000416669	0.200059
0.19	0.00000000394162	0.190061
0.18	0.00000000371766	0.18006
0.17	0.0000000035115	0.170056
0.16	0.00000000329956	0.160064
0.15	0.00000000309378	0.150057
0.14	0.00000000289711	0.140058
0.13	0.00000000269892	0.130064
0.12	0.00000000250626	0.120055
0.11	0.00000000231505	0.110059
0.1	0.0000000021277	0.10006
0.09	0.00000000193816	0.0900552
0.08	0.00000000175149	0.0800586
0.07	0.00000000156323	0.070056
0.06	0.00000000137399	0.0600553
0.05	0.00000000117804	0.0500573
0.04	0.000000000977385	0.040052
0.03	0.000000000761492	0.0300541
0.02	0.000000000534529	0.0200504
0.01	0.000000000285276	0.0100436
0	0.0000000000152307	0.0000463794
