Vots(V)	Current(A)	MeasVolt(V)
0	0.0000000000132963	0.0000383902
-0.005	-0.000000000125163	-0.00500853
-0.01	-0.000000000270257	-0.0100076
-0.015	-0.000000000421113	-0.0150097
-0.02	-0.000000000584746	-0.0200154
-0.025	-0.000000000756229	-0.0250171
-0.03	-0.000000000942382	-0.0300153
-0.035	-0.00000000113369	-0.035012
-0.04	-0.0000000013415	-0.0400144
-0.045	-0.00000000156105	-0.0450142
-0.05	-0.00000000179482	-0.0500182
-0.055	-0.00000000204748	-0.0550188
-0.06	-0.0000000023123	-0.0600159
-0.065	-0.0000000025982	-0.0650128
-0.07	-0.0000000028992	-0.0700187
-0.075	-0.00000000322078	-0.0750183
-0.08	-0.00000000356018	-0.080017
-0.085	-0.00000000392209	-0.0850168
-0.09	-0.00000000431044	-0.0900138
-0.095	-0.00000000471698	-0.0950148
-0.1	-0.00000000515185	-0.10002
-0.105	-0.00000000560965	-0.105021
-0.11	-0.00000000609441	-0.110017
-0.115	-0.00000000660726	-0.115014
-0.12	-0.00000000715136	-0.120015
-0.125	-0.00000000772411	-0.125017
-0.13	-0.00000000832758	-0.130019
-0.135	-0.00000000896258	-0.13502
-0.14	-0.00000000963471	-0.140016
-0.145	-0.0000000103359	-0.145011
-0.15	-0.0000000110781	-0.150017
-0.155	-0.0000000118578	-0.155018
-0.16	-0.0000000126722	-0.160019
-0.165	-0.0000000135292	-0.165017
-0.17	-0.0000000144257	-0.170012
-0.175	-0.0000000153699	-0.175013
-0.18	-0.0000000163532	-0.180019
-0.185	-0.000000017385	-0.185021
-0.19	-0.0000000184595	-0.190017
-0.195	-0.0000000195829	-0.195013
-0.2	-0.0000000207579	-0.200014
-0.205	-0.0000000219843	-0.205017
-0.21	-0.0000000232638	-0.21002
-0.215	-0.0000000246077	-0.215065
-0.22	-0.0000000259925	-0.22005
-0.225	-0.0000000274443	-0.225072
-0.23	-0.0000000289467	-0.230053
-0.235	-0.0000000305176	-0.235072
-0.24	-0.0000000321521	-0.240088
-0.245	-0.0000000338422	-0.245073
-0.25	-0.00000003561	-0.250094
-0.25	-0.0000000355775	-0.250095
-0.245	-0.0000000337628	-0.245073
-0.24	-0.0000000320445	-0.240089
-0.235	-0.0000000303757	-0.235071
-0.23	-0.0000000287809	-0.230052
-0.225	-0.0000000272658	-0.22507
-0.22	-0.0000000257997	-0.220049
-0.215	-0.0000000244077	-0.215064
-0.21	-0.0000000230559	-0.21002
-0.205	-0.0000000217752	-0.205018
-0.2	-0.0000000205456	-0.200013
-0.195	-0.0000000193711	-0.195012
-0.19	-0.0000000182458	-0.190017
-0.185	-0.0000000171762	-0.185022
-0.18	-0.000000016152	-0.180019
-0.175	-0.0000000151637	-0.175014
-0.17	-0.0000000142325	-0.170013
-0.165	-0.0000000133415	-0.165017
-0.16	-0.0000000124915	-0.160018
-0.155	-0.0000000116832	-0.155019
-0.15	-0.0000000109089	-0.150017
-0.145	-0.0000000101701	-0.145011
-0.14	-0.00000000947562	-0.140015
-0.135	-0.00000000881608	-0.135021
-0.13	-0.00000000818748	-0.13002
-0.125	-0.00000000759509	-0.125017
-0.12	-0.00000000702662	-0.120016
-0.115	-0.00000000649246	-0.115014
-0.11	-0.00000000598787	-0.110018
-0.105	-0.00000000550929	-0.105021
-0.1	-0.00000000505889	-0.10002
-0.095	-0.00000000463077	-0.0950155
-0.09	-0.00000000423059	-0.0900133
-0.085	-0.00000000385203	-0.0850177
-0.08	-0.00000000349542	-0.0800175
-0.075	-0.00000000316023	-0.0750183
-0.07	-0.00000000284373	-0.070017
-0.065	-0.00000000254782	-0.0650125
-0.06	-0.00000000226791	-0.0600153
-0.055	-0.00000000200971	-0.0550186
-0.05	-0.00000000176191	-0.0500181
-0.045	-0.00000000153254	-0.0450145
-0.04	-0.00000000131518	-0.0400143
-0.035	-0.00000000111201	-0.0350104
-0.03	-0.000000000921643	-0.0300151
-0.025	-0.000000000741555	-0.0250169
-0.02	-0.000000000572994	-0.0200149
-0.015	-0.000000000418346	-0.0150094
-0.01	-0.000000000262485	-0.0100077
-0.005	-0.000000000122433	-0.00500831
0	0.0000000000133723	-0.00000521025
0.005	0.000000000142922	0.00503645
0.01	0.000000000261696	0.010036
0.015	0.000000000378154	0.0150393
0.02	0.000000000487409	0.0200418
0.025	0.000000000593556	0.0250483
0.03	0.000000000695039	0.0300465
0.035	0.000000000795158	0.0350428
0.04	0.000000000889249	0.040043
0.045	0.000000000985881	0.0450455
0.05	0.00000000107429	0.0500485
0.055	0.00000000116273	0.055047
0.06	0.00000000124837	0.0600475
0.065	0.0000000013356	0.0650454
0.07	0.00000000142279	0.0700479
0.075	0.0000000015071	0.0750492
0.08	0.00000000159057	0.0800506
0.085	0.00000000167329	0.0850482
0.09	0.00000000176181	0.0900461
0.095	0.00000000184491	0.0950484
0.1	0.00000000193134	0.10005
0.105	0.00000000201406	0.105053
0.11	0.0000000021011	0.11005
0.115	0.0000000021875	0.115047
0.12	0.0000000022748	0.120046
0.125	0.00000000236067	0.125052
0.13	0.00000000245631	0.130054
0.135	0.00000000253903	0.135052
0.14	0.00000000262952	0.140049
0.145	0.00000000271971	0.145045
0.15	0.00000000281179	0.150049
0.155	0.00000000290406	0.155051
0.16	0.00000000299777	0.160056
0.165	0.00000000308887	0.165052
0.17	0.00000000318637	0.170048
0.175	0.00000000328137	0.175049
0.18	0.0000000033832	0.180052
0.185	0.00000000347626	0.185054
0.19	0.00000000357946	0.190051
0.195	0.00000000367757	0.195052
0.2	0.00000000378235	0.20005
0.205	0.00000000388792	0.205053
0.21	0.00000000399381	0.210057
0.215	0.00000000409756	0.215073
0.22	0.00000000421394	0.220091
0.225	0.00000000431676	0.225078
0.23	0.000000004429	0.23009
0.235	0.00000000453966	0.235075
0.24	0.00000000465609	0.240095
0.245	0.00000000477155	0.245112
0.25	0.00000000488994	0.2501
0.25	0.00000000489407	0.250099
0.245	0.00000000478452	0.245112
0.24	0.00000000467436	0.240095
0.235	0.00000000456468	0.235076
0.23	0.00000000446017	0.23009
0.225	0.00000000435027	0.225078
0.22	0.00000000423984	0.22009
0.215	0.00000000413358	0.215073
0.21	0.00000000403179	0.210059
0.205	0.00000000392644	0.205054
0.2	0.00000000382822	0.200051
0.195	0.00000000372563	0.195052
0.19	0.00000000362494	0.190052
0.185	0.00000000352585	0.185056
0.18	0.00000000342922	0.180052
0.175	0.00000000333138	0.175049
0.17	0.00000000323512	0.170048
0.165	0.00000000314115	0.165052
0.16	0.00000000304728	0.160055
0.155	0.00000000294902	0.155051
0.15	0.00000000286683	0.150049
0.145	0.00000000276842	0.145046
0.14	0.00000000267729	0.14005
0.135	0.00000000258691	0.135054
0.13	0.0000000024976	0.130055
0.125	0.0000000024123	0.125053
0.12	0.00000000232208	0.120047
0.115	0.00000000223321	0.115047
0.11	0.00000000214261	0.110051
0.105	0.00000000206027	0.105053
0.1	0.00000000197281	0.10005
0.095	0.00000000188596	0.0950472
0.09	0.00000000179923	0.0900462
0.085	0.00000000171416	0.0850464
0.08	0.00000000162784	0.0800496
0.075	0.00000000154106	0.075049
0.07	0.00000000145649	0.0700476
0.065	0.00000000136422	0.065044
0.06	0.00000000127866	0.0600481
0.055	0.00000000118873	0.0550471
0.05	0.00000000109604	0.0500485
0.045	0.00000000100328	0.0450451
0.04	0.000000000909341	0.0400439
0.035	0.000000000809981	0.0350434
0.03	0.000000000711227	0.0300466
0.025	0.000000000605838	0.0250474
0.02	0.000000000499123	0.0200422
0.015	0.000000000384978	0.0150391
0.01	0.000000000267497	0.0100359
0.005	0.000000000143983	0.00503668
0	0.0000000000140925	0.0000389989
